Labels,EmScan11,
Type,Emission Scan,
Comment,,
Start,450.00,
Stop,600.00,
Step,1.00,
Fixed/Offset,443.00,
Xaxis,Wavelength,
Yaxis,Counts,
Scan Corr. by File,False,
Corr. by Ref. Det.,False,
Fixed/Offset Corr. by File,False,
Repeats,1,
Dwell Time,0.50,
Lamp,EPL,
Temp,0.00,
Scan Polariser,None,
Scan Slit,19.9980,
Fixed/Offset Polariser,None,
Fixed/Offset Slit,0.0270,
Detector,PMT,

450.00,1.32800000E+3,
451.00,1.16800000E+3,
452.00,9.93000000E+2,
453.00,9.11000000E+2,
454.00,7.42000000E+2,
455.00,6.91000000E+2,
456.00,6.30000000E+2,
457.00,5.53000000E+2,
458.00,5.10000000E+2,
459.00,5.55000000E+2,
460.00,5.43000000E+2,
461.00,5.57000000E+2,
462.00,5.35000000E+2,
463.00,5.52000000E+2,
464.00,5.89000000E+2,
465.00,5.51000000E+2,
466.00,6.67000000E+2,
467.00,7.40000000E+2,
468.00,7.28000000E+2,
469.00,7.61000000E+2,
470.00,8.43000000E+2,
471.00,9.16000000E+2,
472.00,1.07700000E+3,
473.00,1.15500000E+3,
474.00,1.26000000E+3,
475.00,1.47400000E+3,
476.00,1.71100000E+3,
477.00,1.91200000E+3,
478.00,2.06100000E+3,
479.00,2.53800000E+3,
480.00,2.78000000E+3,
481.00,3.35600000E+3,
482.00,3.78700000E+3,
483.00,4.42100000E+3,
484.00,5.15400000E+3,
485.00,6.08700000E+3,
486.00,7.15400000E+3,
487.00,8.35000000E+3,
488.00,1.01290000E+4,
489.00,1.17630000E+4,
490.00,1.43380000E+4,
491.00,1.69280000E+4,
492.00,2.06570000E+4,
493.00,2.42190000E+4,
494.00,2.97010000E+4,
495.00,3.54270000E+4,
496.00,4.24650000E+4,
497.00,5.09850000E+4,
498.00,6.10960000E+4,
499.00,7.33630000E+4,
500.00,8.59840000E+4,
501.00,1.01265000E+5,
502.00,1.18137000E+5,
503.00,1.37407000E+5,
504.00,1.58538000E+5,
505.00,1.82398000E+5,
506.00,2.06394000E+5,
507.00,2.32676000E+5,
508.00,2.59348000E+5,
509.00,2.86900000E+5,
510.00,3.15043000E+5,
511.00,3.42915000E+5,
512.00,3.68721000E+5,
513.00,3.95000000E+5,
514.00,4.18516000E+5,
515.00,4.41020000E+5,
516.00,4.59490000E+5,
517.00,4.75248000E+5,
518.00,4.90009000E+5,
519.00,5.03008000E+5,
520.00,5.07377000E+5,
521.00,5.11761000E+5,
522.00,5.15808000E+5,
523.00,5.15282000E+5,
524.00,5.09892000E+5,
525.00,5.04805000E+5,
526.00,4.95118000E+5,
527.00,4.86447000E+5,
528.00,4.74802000E+5,
529.00,4.61988000E+5,
530.00,4.48630000E+5,
531.00,4.36542000E+5,
532.00,4.22706000E+5,
533.00,4.09081000E+5,
534.00,3.92023000E+5,
535.00,3.81047000E+5,
536.00,3.68607000E+5,
537.00,3.56797000E+5,
538.00,3.42799000E+5,
539.00,3.31424000E+5,
540.00,3.18860000E+5,
541.00,3.08945000E+5,
542.00,2.98324000E+5,
543.00,2.89283000E+5,
544.00,2.80621000E+5,
545.00,2.72170000E+5,
546.00,2.62377000E+5,
547.00,2.55010000E+5,
548.00,2.47750000E+5,
549.00,2.38288000E+5,
550.00,2.31932000E+5,
551.00,2.24504000E+5,
552.00,2.18585000E+5,
553.00,2.11690000E+5,
554.00,2.06024000E+5,
555.00,1.99472000E+5,
556.00,1.92907000E+5,
557.00,1.86776000E+5,
558.00,1.81164000E+5,
559.00,1.74914000E+5,
560.00,1.67855000E+5,
561.00,1.62951000E+5,
562.00,1.56758000E+5,
563.00,1.50038000E+5,
564.00,1.45363000E+5,
565.00,1.40707000E+5,
566.00,1.35288000E+5,
567.00,1.29263000E+5,
568.00,1.24303000E+5,
569.00,1.18400000E+5,
570.00,1.14023000E+5,
571.00,1.10204000E+5,
572.00,1.04536000E+5,
573.00,1.00684000E+5,
574.00,9.62850000E+4,
575.00,9.12850000E+4,
576.00,8.81000000E+4,
577.00,8.45150000E+4,
578.00,8.03060000E+4,
579.00,7.61430000E+4,
580.00,7.34290000E+4,
581.00,6.98990000E+4,
582.00,6.68680000E+4,
583.00,6.43440000E+4,
584.00,6.12600000E+4,
585.00,5.82620000E+4,
586.00,5.61440000E+4,
587.00,5.38870000E+4,
588.00,5.12540000E+4,
589.00,4.93860000E+4,
590.00,4.75600000E+4,
591.00,4.51420000E+4,
592.00,4.34660000E+4,
593.00,4.18860000E+4,
594.00,4.01100000E+4,
595.00,3.85950000E+4,
596.00,3.69340000E+4,
597.00,3.54870000E+4,
598.00,3.40750000E+4,
599.00,3.34610000E+4,
600.00,3.20140000E+4,
